     353880
     654660
     752942
     936170
    1180534
    1252463
    1076473
     727327
     334936
    -133725
    -359761
    -396457
    -237373
     274200
     948966
    1494683
    1803822
    1630731
     814304
    -555696
   -2339427
   -4378088
   -6812788
   -9845574
  -13706126
  -18720297
  -25387464
  -33639813
  -43856248
  -55461188
  -67406736
  -78925585
  -88895046
  -96374602
 -100802621
 -102078562
 -100227612
  -96068409
  -90424089
  -84031233
  -77856544
  -72717215
  -68859053
  -66483336
  -65718182
  -66499545
  -68817609
  -72402844
  -76690303
  -81288634
  -85792188
  -89700829
  -92302609
  -93516218
  -93043877
  -90942020
  -87823097
  -84378406
  -81212684
  -79003640
  -78029433
  -78713414
  -80771001
  -84014905
  -88056039
  -92320834
  -96251139
  -99645261
 -102065742
 -103319728
 -103237693
 -101946852
  -99437367
  -95954643
  -91920784
  -87663290
  -83640856
  -80537976
  -78649952
  -78144044
  -79516497
  -82364303
  -86455294
  -91488232
  -96676792
 -101690290
 -106019561
 -109201177
 -110605372
 -110812808
 -109532979
 -107179764
 -104207640
 -101027090
  -98033878
  -95761184
  -94125563
  -93212867
  -92877632
  -92274619
  -91071743
  -89151459
  -85974167
  -81420242
  -75527133
  -69068691
  -62511469
  -56461017
  -51394922
  -47757065
  -45822579
  -45544873
  -46220840
  -47645297
  -48952937
  -49675763
  -49239263
  -46997756
  -42885074
  -37057210
  -29663508
  -21203943
  -12426967
   -4575932
    1790528
    5778047
    6778016
    4506390
    -803391
   -8606945
  -17804036
  -27611076
  -36821613
  -44784192
  -51123274
  -55794875
  -59167886
  -62081632
  -65051733
  -68530829
  -72740655
  -78005938
  -83801579
  -89785160
  -95305314
 -100229685
 -104228565
 -107318796
 -109699512
 -111790878
 -113997337
 -116184230
 -118698950
 -121436712
 -124081830
 -126372729
 -127937754
 -128750063
 -128349249
 -126774475
 -124149292
 -120632586
 -116909674
 -113241218
 -110171658
 -108522712
 -108516873
 -110770771
 -115257055
 -121679215
 -129450054
 -137644996
 -145329249
 -151416461
 -155208624
 -156050330
 -153946741
 -149597678
 -143931919
 -138020122
 -133206201
 -130883245
 -131473035
 -135387612
 -142021483
 -150497210
 -159027786
 -164842159
 -164663410
 -154844597
 -131802589
  -92508384
  -34336872
   43852803
  141256171
  255209874
  380645709
  510167786
  634731710
  744389120
  828902166
  879740438
  890365540
  857879821
  782931102
  670971726
  530569835
  373640777
  213185914
   62436259
  -67341407
 -167870243
 -234592267
 -266993373
 -269061022
 -246949607
 -209402965
 -165133163
 -122355239
  -87320539
  -63613552
  -52222454
  -51738402
  -59660892
  -72065682
  -84875625
  -95230207
 -100980904
 -101715759
  -97733566
  -90858746
  -82651350
  -75248058
  -70181730
  -68357871
  -70118764
  -74630610
  -80903157
  -87395310
  -92577489
  -95262631
  -95039555
  -91955793
  -86353718
  -78854713
  -70565028
  -62558167
  -55653563
  -49856491
  -45348987
  -42389056
  -40120294
  -38092800
  -35759567
  -33207844
  -30371399
  -27656793
  -25134664
  -23320516
  -22113834
  -21613242
  -21355654
  -21318067
  -20846656
  -19752858
  -17993684
  -15587451
  -12639383
   -9606043
   -6531049
   -3886626
   -1603148
     509100
    2557888
    4692719
    7248025
   10579911
   14789244
   19864144
   25808328
   32368872
   39572250
   46792755
   54261301
   61535231
   68608833
   75488677
   82602062
   90226733
   98610351
  108034187
  118660025
  130644872
  143484188
  157038265
  170731498
  183940603
  196411189
  207457679
  216842227
  224910571
  231382756
  236513649
  241235895
  245606362
  249932538
  254506648
  259824734
  265794508
  272467434
  279584104
  286888983
  293739338
  299818569
  304556658
  307464471
  308059016
  306293633
  302451552
  296622203
  289213369
  280755372
  271510160
  261744485
  251619451
  240853001
  229381998
  217076846
  203807714
  189512830
  174498543
  159094673
  143640225
  128570886
  114155574
  100799278
   88514928
   77265151
   66939609
   57196731
   47904766
   38780892
   29464900
   19685247
    9518716
   -1171141
  -12142753
  -23243574
  -34136537
  -44605539
  -54215933
  -62215319
  -68615243
  -73635204
  -76676720
  -78017920
  -78046964
  -77011410
  -75442184
  -73720564
  -72316784
  -71503087
  -71392904
  -72079525
  -73517533
  -75389813
  -77525106
  -79700781
  -81402944
  -82632142
  -83202109
  -83166395
  -82689266
  -81995216
  -81263894
  -80951529
  -80956837
  -81351140
  -81743037
  -82189518
  -82265220
  -81872871
  -80983474
  -79406409
  -77231930
  -74809049
  -72314537
  -69916090
  -67589129
  -65755845
  -64344534
  -63431223
  -63091278
  -63365958
  -64077798
  -65085663
  -66176713
  -67073731
  -67341932
  -67185123
  -66117662
  -64462796
  -62361610
  -60475306
  -59265417
  -59214259
  -60340291
  -62892475
  -66338106
  -70196888
  -73487482
  -75408825
  -75410939
  -73304836
  -69063022
  -63351940
  -57024312
  -51016868
  -46226378
  -43627582
  -43359243
  -45676849
  -50046643
  -55758441
  -62108856
  -68205655
  -73321853
  -77199281
  -79060800
  -79235405
  -77910159
  -75770306
  -73185989
  -70676098
  -68898448
  -68021432
  -68204960
  -69568769
  -71764959
  -74609858
  -77687509
  -80941993
  -83852047
  -86518230
  -88826197
  -90666525
  -91840763
  -92614906
  -93087791
  -93202380
  -92923842
  -92637160
  -91966313
  -91294430
  -90524248
  -89889947
  -89131843
  -88254013
  -87068851
  -85729374
  -84145060
  -82392342
  -80780439
  -79711430
  -79398867
  -79766504
  -80964821
  -83021122
  -85556025
  -88136648
  -90484424
  -92244926
  -93515949
  -94364787
  -94962992
  -95672888
  -96857844
  -98492123
 -100764397
 -102974924
 -105139411
 -106887300
 -107502451
 -106849183
 -105020376
 -102283281
  -99143025
  -96015317
  -93446612
  -92047269
  -91843148
  -92954003
  -95247760
  -98413748
 -102048550
 -105640403
 -108840291
 -111464995
 -113344080
 -114469253
 -114890672
 -114740779
 -114043662
 -112835511
 -111183826
 -109227424
 -107182319
 -105012738
 -102954422
 -101283168
 -100329355
 -100212821
 -100845830
 -102465051
 -104513037
 -106482996
 -107834872
 -107825243
 -106367464
 -103095436
  -98172230
  -92111650
  -85463431
  -78866808
  -73193755
  -68488623
  -65016437
  -62473663
  -60737320
  -59233583
  -57690459
  -55776248
  -54169336
  -52405345
  -51077916
  -50311458
  -50632100
  -51521625
  -52585064
  -53174289
  -52650629
  -50585135
  -46734629
  -41066130
  -34173018
  -26580939
  -18988000
  -12233546
   -7516183
   -5069276
   -5180082
   -7839634
  -13375038
  -21093536
  -30655449
  -41432402
  -52637783
  -63487036
  -73494597
  -81595701
  -87593269
  -91394727
  -93406877
  -93734944
  -93377869
  -93083962
  -93166443
  -94600606
  -97385994
 -101245002
 -106077137
 -111156153
 -115888105
 -119486672
 -121578353
 -122215030
 -121571680
 -119662125
 -117439696
 -115186358
 -113695929
 -113295957
 -114144206
 -116502453
 -120139567
 -124495285
 -129314331
 -133795163
 -138018811
 -141175708
 -143146605
 -144140037
 -144434206
 -144224784
 -143638742
 -142760895
 -142030414
 -141388635
 -140950123
 -140725302
 -141019085
 -141800488
 -143439359
 -146261103
 -150556163
 -155566604
 -160374018
 -162896383
 -160064899
 -148624165
 -124660081
  -84135994
  -24384444
   55907531
  156416629
  274248708
  403480796
  536251707
  662843633
  772477016
  855334304
  902491176
  907958350
  869564896
  789242144
  673151342
  530789703
  373815174
  215471829
   68722856
  -56563902
 -152708853
 -216331797
 -247882679
 -251297836
 -233127491
 -201047635
 -163265637
 -126637117
  -96389328
  -75779839
  -65450700
  -64284937
  -70149026
  -80030549
  -90744781
  -99830873
 -106135540
 -108785067
 -107916158
 -104111055
  -98752804
  -92880956
  -87187731
  -82401470
  -78737567
  -75948398
  -73594471
  -71084847
  -68183959
  -64598356
  -60454962
  -55894784
  -51514095
  -47823745
  -45136318
  -43651143
  -44082917
  -45977067
  -49294289
  -53518599
  -58256971
  -62497717
  -65918252
  -67652272
  -67374123
  -64999909
  -60621507
  -54360144
  -47194420
  -39522001
  -32173046
  -25800395
  -20668881
  -16888136
  -14079623
  -11780919
   -9407202
   -6241337
   -2087971
    3352447
    9515612
   16079612
   22541464
   28267973
   32615275
   35456373
   36903844
   37397299
   37114095
   37109859
   37736378
   39576104
   42738764
   47718066
   54152011
   61932340
   70697124
   80095899
   89784038
   99431611
  108807235
  118099710
  127060667
  135946719
  145022724
  154667363
  164940657
  175897344
  187416564
  199559210
  211618772
  223540740
  234678037
  245068697
  254423765
  262911242
  270470897
  277526413
  284283177
  290860907
  296785821
  302279579
  306742156
  310050313
  311760358
  311806492
  310082434
  306700277
  301839796
  295733254
  288298566
  279916989
  270358985
  259722690
  247938357
  234831595
  220356493
  204792575
  188200269
  170816772
  152827287
  134780178
  116902874
   99589337
   83352256
   68391384
   54857148
   43190225
   32825410
   23679151
   15379873
    7482443
    -305921
   -8440060
  -17260137
  -26327436
  -35349794
  -43881611
  -51572649
  -57895376
  -62689561
  -66147299
  -68645053
  -70339152
  -72201433
  -74512689
  -77657362
  -81623105
  -86413437
  -91445342
  -96196485
 -100433150
 -103848194
 -105817630
 -106389110
 -105864274
 -104317302
 -102117907
  -99701488
  -97248162
  -94807297
  -92441179
  -89997720
  -87232590
  -84178578
  -80943436
  -77775500
  -74798957
  -72873823
  -72515034
  -73888694
  -77168878
  -82121300
  -88168324
  -94209814
  -99365276
 -102504263
 -102969233
 -100329829
  -94724707
  -86953667
  -77841531
  -68703817
  -60638301
  -54662662
  -51387391
  -50342295
  -51842929
  -55358950
  -59820458
  -64453851
  -68783090
  -72535002
  -75393301
  -77037177
  -77641026
  -77323111
  -76048558
  -73801914
  -70770264
  -67247812
  -63392623
  -59565605
  -56306474
  -53741810
  -52216871
  -52218892
  -53849662
  -56945062
  -61409289
  -66706165
  -72433744
  -77845254
  -82371317
  -85424939
  -86970499
  -86666758
  -84848837
  -81951997
  -78511485
  -75231880
  -72654163
  -71049212
  -70635304
  -71433977
  -73156413
  -75308647
  -77812446
  -80166069
  -82230520
  -83888922
  -85491036
  -87052335
  -88641098
  -90351604
  -92357159
  -94305488
  -96107740
  -97747657
  -99513574
 -100639767
 -101232022
 -101498704
 -101570243
 -101285588
 -100753194
  -99851942
  -98844948
  -97552805
  -96432103
  -95533446
  -95069025
  -95348924
  -96296460
  -97846291
 -100046643
 -102297946
 -104474152
 -106341319
 -107455787
 -107858628
 -107777843
 -107142225
 -106203684
 -105461548
 -105189030
 -105456985
 -106495150
 -108037877
 -110036839
 -111986745
 -113591790
 -114298983
 -114190319
 -112929931
 -110803494
 -108170318
 -105402231
 -103316410
 -102540775
 -103296740
 -105835594
 -109834032
 -114818333
 -120199546
 -124668787
 -127423061
 -128239498
 -126540695
 -122509184
 -116592118
 -109353850
 -101697065
  -94512547
  -88338025
  -83514860
  -80170535
  -78145763
  -76829866
  -75880092
  -74812445
  -73232179
  -70805699
  -67500040
  -63774251
  -59703424
  -55843044
  -52793575
  -50791506
  -50232533
  -51157773
  -53231561
  -56000834
  -58747232
  -60622078
  -60991316
  -59458237
  -55648326
  -49899154
  -42674661
  -34958836
  -27682484
  -21762435
  -18045372
  -16768733
  -18384797
  -22347028
  -28481817
  -36215721
  -44722320
  -53831572
  -62928565
  -71771462
  -80098807
  -87888370
  -94933901
 -101337736
 -106591953
 -110813064
 -113785687
 -115327572
 -115724013
 -115119170
 -113654219
 -112245565
 -111406137
 -111693841
 -113349350
 -116732944
 -121503962
 -127538693
 -133962953
 -140064380
 -144722664
 -147571442
 -147935871
 -145943319
 -142030937
 -137071262
 -131993837
 -127719141
 -124912642
 -124545550
 -126299183
 -129609835
 -133818017
 -138277777
 -142083158
 -144602636
 -145358540
 -144621374
 -142624883
 -139874617
 -136757728
 -134224253
 -132726939
 -132717752
 -134728124
 -138828099
 -144885341
 -152112818
 -158903498
 -163110516
 -161236598
 -149515429
 -123473068
  -79356759
  -14295883
   72880681
  181256654
  306562375
  442093248
  578434311
  704703567
  809552727
  882592851
  915177588
  902970131
  845362068
  746174278
  613706082
  459259263
  296114286
  138106374
   -2884986
 -117053603
 -198845164
 -246272871
 -261937623
 -251199672
 -221339822
 -181001951
 -138367797
 -100005347
  -71026139
  -53420739
  -47446235
  -51754171
  -63495309
  -79113198
  -95416446
 -109394684
 -119240243
 -123704143
 -122739138
 -117081526
 -108112729
  -97269427
  -86339888
  -76673222
  -69502252
  -65086170
  -63322268
  -63834893
  -65850274
  -68322918
  -70296858
  -71053644
  -70441294
  -68326921
  -64606838
  -59872981
  -54671124
  -49458100
  -44444273
  -39872324
  -35868361
  -32256370
  -29171248
  -26452842
  -24313394
  -22763012
  -21690664
  -21548684
  -22133764
  -23483486
  -25486911
  -27520793
  -29161321
  -30007563
  -29875098
  -28022444
  -24255535
  -18869445
  -11835952
   -3477787
    5480990
   14673081
   23671323
   31782156
   38658014
   44490042
   49312007
   53384698
   56951337
   60257328
   63362971
   66408638
   69711486
   73122943
   76524414
   80170335
   84228461
   89047807
   95093974
  102644596
  111925712
  122980254
  135780793
  149804122
  164454050
  179237206
  193394858
  206324450
  217954715
  227988340
  236706506
  244166836
  250943285
  257223663
  263336555
  269521967
  275893009
  282144649
  288228294
  293860904
  298781746
  302634691
  305142130
  306067786
  305458712
  303203746
  299494191
  294551439
  288434427
  281188663
  272917583
  263489961
  252843241
  240784579
  227443531
  212904113
  197328054
  181095526
  164613661
  148224631
  132381450
  117097086
  102596538
   88819900
   75785091
   63101565
   50812781
   38854117
   27166503
   15900056
    5445788
   -4288746
  -13141653
  -20901785
  -27432692
  -32842355
  -37214527
  -40966079
  -44266239
  -47434921
  -50515344
  -53824467
  -57242591
  -61275346
  -65327347
  -69149108
  -72223266
  -74684908
  -76413736
  -77394788
  -77654042
  -77765689
  -77820926
  -78086072
  -78637202
  -79449431
  -80179933
  -80556984
  -80262796
  -79419339
  -78023081
  -76368103
  -74824163
  -73413642
  -72707296
  -72594179
  -72687249
  -72695779
  -72286549
  -71167754
  -69230483
  -66643852
  -63741907
  -61094558
  -58847902
  -57186437
  -56068898
  -55506479
  -54652951
  -53006537
  -50469446
  -46724997
  -42121342
  -37339863
  -32850666
  -29388305
  -27525818
  -27452116
  -29107268
  -32439952
  -36653583
  -41141046
  -45458168
  -49388684
  -52683412
  -55420021
  -57565255
  -59318494
  -60690227
  -61870628
  -62653871
  -62767553
  -62190284
  -61022829
  -59309331
  -57196039
  -54982992
  -53045334
  -51450478
  -50043871
  -49325499
  -49199635
  -49253475
  -49579624
  -50255965
  -51073323
  -52561511
  -54435031
  -56831905
  -59713783
  -63116366
  -66562925
  -69517245
  -71662969
  -72796053
  -72508292
  -71071102
  -68689556
  -66199546
  -64054294
  -62595784
  -62422132
  -63928088
  -66651028
  -70150563
  -73817266
  -77125500
  -79508580
  -80857367
  -81285753
  -81113675
  -80873762
  -81130347
  -82164492
  -84118341
  -86779656
  -89796157
  -92401257
  -94189991
  -94844764
  -93828618
  -91820475
  -89233384
  -86452144
  -83909517
  -82061263
  -81146066
  -80787827
  -80789207
  -80681626
  -80281829
  -79045189
  -77214840
  -74520208
  -71295197
  -67628795
  -63886753
  -60063715
  -56592736
  -53543296
  -51102290
  -49384605
  -48546014
  -48323233
  -48675140
  -49492417
  -50422719
  -50607313
  -49863243
  -47722281
  -44291070
  -38964991
  -32172782
  -24484040
  -16350320
   -8239178
   -1001201
    4908262
    8991486
   11181443
   11254849
    9483368
    5995663
    1039252
   -5158949
  -11885641
  -19220638
  -26895301
  -34661838
  -42459986
  -50471857
  -58442638
  -66150695
  -73940962
  -80877526
  -86996893
  -91960319
  -95543039
  -97539782
  -97788987
  -96857747
  -95050508
  -93108051
  -91338692
  -90603889
  -91133990
  -93342960
  -96899989
 -101759646
 -107139132
 -112358270
 -116455426
 -118703944
 -118362604
 -115323093
 -109957195
 -102924111
  -95464859
  -89092636
  -85111288
  -84939450
  -89093671
  -97373849
 -109027022
 -122563026
 -136006119
 -147446904
 -155067076
 -157560717
 -154342758
 -146242720
 -134403852
 -121041913
 -108195614
  -98173675
  -92644083
  -92414564
  -97621074
 -107848708
 -121340105
 -135572122
 -147511022
 -153443092
 -149610383
 -132722780
  -99811398
  -48672518
   20913766
  108254515
  210258428
  321866276
  436290731
  545560575
  641079302
  714310598
  758154935
  767274420
  739724445
  676154841
  581038877
  461838434
  328040638
  190309413
   59542116
  -54508467
 -145291801
 -208626431
 -243351133
 -252080955
 -239868313
 -212990152
 -178377188
 -142978587
 -111893267
  -88259524
  -73602196
  -67178870
  -67370017
  -71729869
  -77696876
  -83061103
  -86885407
  -88729196
  -88754219
  -87693172
  -86185972
  -84646755
  -83131189
  -81717463
  -80218718
  -77651188
  -73891855
  -68563306
  -61913889
  -54349876
  -46726617
  -39250450
  -33196602
  -28838683
  -26201750
  -25301539
  -26099177
  -28249417
  -31417788
  -34655289
  -38017869
  -40612775
  -42086480
  -41988024
  -40017367
  -36215602
  -30713638
  -23882050
  -16521512
   -9263553
   -3124700
    1325308
    3155156
    2503681
    -515505
   -5545876
  -11509255
  -17022049
  -21300748
  -23117082
  -21142601
  -15170179
   -5501316
    7131737
   21445040
   36122603
   49603123
   61279795
   69396340
   73781378
   74867683
   73475700
   70465655
   67301569
   64675329
   63575824
   64881237
   68868416
   75245096
   83963254
   94279164
  105900156
  118032335
  130356775
  142190268
  153306941
  163699006
  172932827
  181250668
  188926335
  195922378
  203281606
  210502968
  218239176
  226465089
  235263616
  244024064
  252428993
  259957730
  266266889
  270921617
  273519660
  274266788
  273522217
  271599386
  268920682
  265777731
  262558768
  259151965
  255232888
  250079140
  243505344
  234834991
  223292596
  209071749
  192212129
  173744634
  154532784
  135843593
  118668012
  103442917
   91068799
   81450701
   73859385
   67785484
   62412332
   56460371
   50002496
   42792764
   34532212
   25537984
   16197583
    6786684
   -2458675
  -11570803
  -20460579
  -29178806
  -37910905
  -46053889
  -53790658
  -60580081
  -66180653
  -70616428
  -73687003
  -76050333
  -77878843
  -79744400
  -81548575
  -84133797
  -87382060
  -90642477
  -93519445
  -95665223
  -96546005
  -95509611
  -92758271
  -88348191
  -82304469
  -75489905
  -68630252
  -61975571
  -56670266
  -53155114
  -51754361
  -52676410
  -56111246
  -61375003
  -68172798
  -75069919
  -81597498
  -86504303
  -89336550
  -89423689
  -87073153
  -82551061
  -76691942
  -70412216
  -65070443
  -61210472
  -59308365
  -59735384
  -62044221
  -65592581
  -69592469
  -73261450
  -76131804
  -77531605
  -77236684
  -75288640
  -71981849
  -67657548
  -62736691
  -57462992
  -52900269
  -49209132
  -46967375
  -46267905
  -47417888
  -50229497
  -54703893
  -60459680
  -66635493
  -72315398
  -77193575
  -80129886
  -80595386
  -78490012
  -73807942
  -67100178
  -59568273
  -52349541
  -46670905
  -43410471
  -43677972
  -47074672
  -53667307
  -62357293
  -71514699
  -79730012
  -85844576
  -88880215
  -88962109
  -86304606
  -82147664
  -77531950
  -74039996
  -72629112
  -73891857
  -77403612
  -82784847
  -88767167
  -94316992
  -98174462
  -99959627
  -99400721
  -96957946
  -93115143
  -88705267
  -84204334
  -80409547
  -77145761
  -74639266
  -72861463
  -71474609
  -70375836
  -69871236
  -69734710
  -70304366
  -71616729
  -73649305
  -76028993
  -78178831
  -79452604
  -79584698
  -77994894
  -74956083
  -70408837
  -65223724
  -60190127
  -55805044
  -52683845
  -51076698
  -50087996
  -49781081
  -49443420
  -47808946
  -44079056
  -38363948
  -30497545
  -21238001
  -11316834
   -1904038
    5798614
   11288182
   14003856
   13691376
   11004521
    6005299
    -570328
   -8198635
  -16463162
  -25640615
  -35590619
  -46320316
  -57633280
  -69286441
  -80894412
  -91677049
 -100616506
 -107243722
 -111340168
 -113185545
 -113124555
 -112028016
 -110863231
 -110400774
 -111015506
 -112751559
 -115454733
 -117975280
 -119906048
 -120344470
 -118733591
 -115582763
 -111481821
 -107114607
 -103541686
 -101724370
 -102254425
 -105279140
 -110267735
 -116281224
 -122714983
 -128248892
 -132299152
 -134597084
 -134977622
 -133517994
 -131442609
 -129392938
 -127903853
 -127349828
 -127728772
 -128746729
 -130155085
 -131265309
 -131861161
 -131812092
 -131263542
 -130706340
 -131054586
 -132871916
 -136697920
 -142473281
 -149637745
 -156406692
 -160393601
 -158733107
 -148439745
 -125965977
  -89082598
  -36452666
   31475958
  113323668
  205293641
  302528749
  398518581
  486552876
  559448501
  610761305
  635250198
  629983770
  593542307
  528175990
  438397785
  330238426
  212302035
   93538536
  -17089643
 -111841577
 -184914671
 -233201285
 -256503494
 -256955351
 -239254432
 -209036000
 -172825739
 -136311832
 -104741733
  -80922547
  -66456815
  -60820773
  -62855034
  -69806628
  -79497525
  -89064560
  -97043399
 -101878067
 -103589962
 -102377277
  -98924217
  -94082672
  -89164535
  -84555604
  -81121786
  -78583608
  -77048826
  -75692921
  -74374685
  -72582333
  -69933988
  -66494827
  -62435584
  -57761790
  -53227886
  -49022468
  -45569669
  -42773953
  -41006995
  -40376407
  -40727160
  -41664268
  -43026587
  -44666413
  -46285985
  -47398298
  -47730677
  -47371334
  -45949993
  -43289861
  -39715334
  -35728719
  -31387535
  -27230286
  -23844543
  -20895350
  -18805501
  -17215893
  -15705978
  -13806157
  -11267018
   -7421111
   -2468966
    3680130
   10626623
   18445786
   26162298
   33729776
   40712929
   47044969
   52210640
   56429235
   59933241
   62644313
   64752332
   66854103
   69327417
   72458244
   76674518
   82576781
   90131965
   99384303
  110398243
  122716559
  136018864
  149734010
  163107229
  175778090
  187651500
  198390621
  207826951
  216066847
  223465134
  230044936
  235672235
  240414125
  244231230
  246927452
  248706337
  249453243
  249297190
  248392745
  246982854
  245276322
  243497383
  241706295
  239679747
  237546202
  234451642
  230319514
  224322593
  215985460
  205399467
  192413320
  177476982
  161134893
  144466183
  128325065
  113502359
  100842696
   90407594
   81809406
   74582991
   67941934
   61037089
   52839376
   42994879
   31097762
   17527205
    2609540
  -13103464
  -28931767
  -43698454
  -57211132
  -68787312
  -78096836
  -84849166
  -89102115
  -91168924
  -91028328
  -89350975
  -86769004
  -84035860
  -82064725
  -81302634
  -82298542
  -85321132
  -89849649
  -95464998
 -101464431
 -106571886
 -110291763
 -111646663
 -110793389
 -107768724
 -102937076
  -97122427
  -91516568
  -86724126
  -83411398
  -82608724
  -84034165
  -87324363
  -92069669
  -97360073
 -102432558
 -106354104
 -108842234
 -108848102
 -107128563
 -103826282
  -99450105
  -94543234
  -90157212
  -86759031
  -84486094
  -83365224
  -83614480
  -84598279
  -85951788
  -87065245
  -87889680
  -88348090
  -87893542
  -86428615
  -84336558
  -81636489
  -78548871
  -75305017
  -72183174
  -69624960
  -67722620
  -66914397
  -67196012
  -68597443
  -70978257
  -73833717
  -76923383
  -79757449
  -81810415
  -83141413
  -83449258
  -82705258
  -81602075
  -80332849
  -79643766
  -79649580
  -80913957
  -83633043
  -87785358
  -92749235
  -98340348
 -104146310
 -109171569
 -112655309
 -114325272
 -113625608
 -110401915
 -105199231
  -98412272
  -90936352
  -83887042
  -77784688
  -73861570
  -72295045
  -73480774
  -76860335
  -81783347
  -87669003
  -93911305
  -99742271
 -104608127
 -108125144
 -110361087
 -111293652
 -111022236
 -109868800
 -108195616
 -106427337
 -104568220
 -103037286
 -101488720
 -100165622
  -99390283
  -98553144
  -97345629
  -95585200
  -93269904
  -90137464
  -86240315
  -81717418
  -77072850
  -72742947
  -68702689
  -65177887
  -62372736
  -60271086
  -58408540
  -56527805
  -54505344
  -52020950
  -49064928
  -45845996
  -42556022
  -39645779
  -37381268
  -36148683
  -35984545
  -37180486
  -39799782
  -43872877
  -49050200
  -55523749
  -62740759
  -70605786
  -78786049
  -86957264
  -94321245
 -101062979
 -106763469
 -111102698
 -114089684
 -116102186
 -117029023
 -117017282
 -116444882
 -115520283
 -114240650
 -112900527
 -111549302
 -110371081
 -109387633
 -109127364
 -109547233
 -111285165
 -114346206
 -118474482
 -123659630
 -129875325
 -136731992
 -143446945
 -149695127
 -155150992
 -159296679
 -161615172
 -162142526
 -161021650
 -158602066
 -155384357
 -151711960
 -148531242
 -146125601
 -145159292
 -145712033
 -147482694
 -150014626
 -153291371
 -156225904
 -158216639
 -158941515
 -158795294
 -157665416
 -156261829
 -155101518
 -154773412
 -155666093
 -157926701
 -161633464
 -166154994
 -170446386
 -173857903
 -173769344
 -168114497
 -154320831
 -129640603
  -91056445
  -36632178
   34655608
  122193607
  223597180
  334088575
  446888431
  553542340
  645020155
  712488950
  748508900
  748047804
  709466445
  634519966
  529101689
  401825260
  263659459
  125943118
    -544417
 -106456822
 -185795405
 -235869881
 -257523532
 -254760087
 -233764013
 -201825164
 -166244328
 -133482241
 -107996714
  -92373918
  -86788917
  -89629932
  -98270656
 -109757311
 -120820360
 -129450786
 -134439496
 -135472083
 -132926273
 -128125428
 -122328590
 -116606493
 -111947367
 -108571302
 -106744982
 -105676518
 -105132600
 -104251998
 -102449886
  -99693991
  -96121302
  -91587956
  -86445118
  -81384177
  -76586357
  -72704382
  -70159990
  -69089242
  -69677473
  -71525207
  -74449794
  -77971547
  -81413707
  -84078656
  -85341714
  -84619716
  -81662666
  -76592468
  -69655468
  -61636511
  -53534060
  -45944694
  -39927639
  -36054654
  -34908962
  -36270565
  -39587560
  -44017626
  -48391404
  -51696009
  -52929987
  -51400527
  -46669796
  -39426787
  -30388957
  -20313767
  -10366893
   -1494102
    5796934
   11167880
   14651063
   16845025
   18342387
   20133572
   22603647
   26415684
   31723521
   38759889
   47402469
   57511589
   68558501
   80344415
   92463821
  104590295
  116241837
  127077758
  136996347
  145639349
  153268458
  160203954
  166536892
  173018903
  179852904
  187334096
  195381268
  204014870
  212582026
  220426098
  226681206
  231315277
  233309850
  232516977
  229156072
  223838136
  216976260
  209206842
  201163507
  193730564
  187020423
  181471541
  176716147
  172340065
  167581112
  161827572
  154117843
  143760069
  130721750
  115035310
   96926645
   77380959
   57087883
   37190586
   18809732
    2737652
  -10863998
  -21696938
  -30282703
  -36992900
  -42308764
  -47077236
  -51967188
  -57324089
  -63224193
  -69884694
  -77203711
  -84936720
  -92673744
 -100058490
 -106720626
 -112561290
 -117065837
 -120107320
 -121629168
 -121754743
 -121099384
 -119734360
 -118084519
 -116335944
 -115048768
 -114053982
 -113433640
 -113063645
 -113311243
 -113622211
 -114049225
 -114569251
 -115507607
 -116911696
 -118920647
 -121471258
 -124540386
 -127712702
 -130983241
 -134002733
 -136529444
 -138048942
 -138676333
 -137990564
 -136226084
 -133392729
 -130095523
 -126382712
 -122613945
 -119137444
 -116228759
 -114085899
 -112944906
 -112595554
 -112776960
 -113165889
 -113170351
 -112606151
 -111226179
 -108765034
 -105198089
 -101086263
  -96672061
  -92347102
  -88508355
  -85793723
  -84031841
  -83381408
  -83860355
  -85084122
  -86561576
  -88475446
  -90517503
  -92210067
  -93580438
  -94691393
  -95544156
  -96032433
  -96263346
  -96635459
  -96843950
  -97243123
  -97867917
  -98950980
 -100486480
 -102682989
 -105639676
 -109010434
 -112709509
 -116372595
 -119557292
 -122040151
 -123112021
 -122242012
 -119170711
 -114187291
 -107519472
  -99452623
  -91406474
  -84291358
  -79024437
  -76979969
  -78568021
  -84054249
  -92988362
 -104459160
 -117152699
 -129578316
 -140075835
 -147620567
 -151138989
 -150313741
 -145381662
 -137278188
 -127041044
 -116385516
 -106938103
 -100137390
  -96791957
  -97908864
 -102997442
 -111158489
 -121246730
 -132008511
 -141176329
 -147279905
 -149168063
 -146248844
 -138643936
 -127076031
 -112806337
  -97767347
  -83063434
  -70339638
  -60751003
  -55342233
  -53964382
  -56612296
  -62388769
  -70495868
  -79688087
  -88842235
  -96852740
 -102785116
 -105831262
 -105821467
 -102740948
  -97243532
  -89794087
  -81208931
  -72566121
  -64346724
  -57071034
  -51233610
  -46517359
  -43017942
  -40637037
  -39559890
  -39778650
  -41477323
  -44976776
  -50708854
  -58194714
  -67041008
  -76606126
  -86071694
  -94303715
 -100613254
 -104641894
 -106519678
 -106600554
 -106051079
 -105718710
 -106654334
 -109218606
 -113657574
 -119142650
 -125355868
 -131130728
 -135842655
 -138852343
 -140145212
 -139814802
 -138770540
 -137623676
 -137562039
 -139120556
 -142291257
 -147037057
 -152633229
 -158366274
 -163470829
 -166906905
 -168080317
 -166985770
 -163993059
 -159479333
 -154291162
 -149304143
 -145236961
 -142746382
 -142090314
 -143165885
 -145492191
 -148649319
 -152335824
 -155773392
 -158416461
 -160353308
 -161714742
 -162896944
 -164428415
 -166562852
 -169668055
 -173669962
 -178455571
 -183636537
 -188264034
 -191363804
 -191454125
 -186822214
 -175065311
 -153717948
 -120436167
  -72791819
   -9357285
   70458384
  165117675
  271727603
  385221917
  498654359
  603696272
  691745982
  754216421
  784439852
  778160320
  734394020
  655594644
  547920740
  420381512
  283393531
  148465169
   26052817
  -75426571
 -150296619
 -196371325
 -215390607
 -211486116
 -190776689
